# === DATA DESCRIPTION FILE ======================================================
#
# CAUTION - Investigational device.
# Limited by Federal Law to investigational use.
#
# Dataset name: E:\Export\27157_MD106_050913\MD106_050913_WIP_PRACTICE_1_SENSE_5_1
#
# CLINICAL TRYOUT             Research image export tool     V4.2
#
# === GENERAL INFORMATION ========================================================
#
.    Patient name                       :   MD106_050913
.    Examination name                   :   MD106
.    Protocol name                      :   WIP PRACTICE_1 SENSE
.    Examination date/time              :   2013.09.05 / 14:22:13
.    Series Type                        :   Image   MRSERIES
.    Acquisition nr                     :   5
.    Reconstruction nr                  :   1
.    Scan Duration [sec]                :   56
.    Max. number of cardiac phases      :   1
.    Max. number of echoes              :   2
.    Max. number of slices/locations    :   31
.    Max. number of dynamics            :   16
.    Max. number of mixes               :   1
.    Patient position                   :   Head First Supine
.    Preparation direction              :   Anterior-Posterior
.    Technique                          :   FEEPI
.    Scan resolution  (x, y)            :   80  80
.    Scan mode                          :   MS
.    Repetition time [ms]               :   2800.000  
.    FOV (ap,fh,rl) [mm]                :   240.000  124.000  240.000
.    Water Fat shift [pixels]           :   6.645
.    Angulation midslice(ap,fh,rl)[degr]:   -4.011  3.054  -23.000
.    Off Centre midslice(ap,fh,rl) [mm] :   -17.830  31.044  0.585
.    Flow compensation <0=no 1=yes> ?   :   0
.    Presaturation     <0=no 1=yes> ?   :   0
.    Phase encoding velocity [cm/sec]   :   0.000000  0.000000  0.000000
.    MTC               <0=no 1=yes> ?   :   0
.    SPIR              <0=no 1=yes> ?   :   1
.    EPI factor        <0,1=no EPI>     :   35
.    Dynamic scan      <0=no 1=yes> ?   :   1
.    Diffusion         <0=no 1=yes> ?   :   0
.    Diffusion echo time [ms]           :   0.0000
.    Max. number of diffusion values    :   1
.    Max. number of gradient orients    :   1
.    Number of label types   <0=no ASL> :   0
#
# === PIXEL VALUES =============================================================
#  PV = pixel value in REC file, FP = floating point value, DV = displayed value on console
#  RS = rescale slope,           RI = rescale intercept,    SS = scale slope
#  DV = PV * RS + RI             FP = DV / (RS * SS)
#
# === IMAGE INFORMATION DEFINITION =============================================
#  The rest of this file contains ONE line per image, this line contains the following information:
#
#  slice number                             (integer)
#  echo number                              (integer)
#  dynamic scan number                      (integer)
#  cardiac phase number                     (integer)
#  image_type_mr                            (integer)
#  scanning sequence                        (integer)
#  index in REC file (in images)            (integer)
#  image pixel size (in bits)               (integer)
#  scan percentage                          (integer)
#  recon resolution (x y)                   (2*integer)
#  rescale intercept                        (float)
#  rescale slope                            (float)
#  scale slope                              (float)
#  window center                            (integer)
#  window width                             (integer)
#  image angulation (ap,fh,rl in degrees )  (3*float)
#  image offcentre (ap,fh,rl in mm )        (3*float)
#  slice thickness (in mm )                 (float)
#  slice gap (in mm )                       (float)
#  image_display_orientation                (integer)
#  slice orientation ( TRA/SAG/COR )        (integer)
#  fmri_status_indication                   (integer)
#  image_type_ed_es  (end diast/end syst)   (integer)
#  pixel spacing (x,y) (in mm)              (2*float)
#  echo_time                                (float)
#  dyn_scan_begin_time                      (float)
#  trigger_time                             (float)
#  diffusion_b_factor                       (float)
#  number of averages                       (integer)
#  image_flip_angle (in degrees)            (float)
#  cardiac frequency   (bpm)                (integer)
#  minimum RR-interval (in ms)              (integer)
#  maximum RR-interval (in ms)              (integer)
#  TURBO factor  <0=no turbo>               (integer)
#  Inversion delay (in ms)                  (float)
#  diffusion b value number    (imagekey!)  (integer)
#  gradient orientation number (imagekey!)  (integer)
#  contrast type                            (string)
#  diffusion anisotropy type                (string)
#  diffusion (ap, fh, rl)                   (3*float)
#  label type (ASL)            (imagekey!)  (integer)
#
# === IMAGE INFORMATION ==========================================================
#  sl ec  dyn ph ty    idx pix scan% rec size                (re)scale              window        angulation              offcentre        thick   gap   info      spacing     echo     dtime   ttime    diff  avg  flip    freq   RR-int  turbo delay b grad cont anis         diffusion       L.ty

  1   1    1  1 0 2     0  16   100   80   80     0.00000   2.25665 8.16830e-004  1070  1860  -4.01   3.05 -23.00  -41.22  -24.05    4.78  4.000  0.000 0 1 1 2  3.000  3.000  12.00    0.00     0.00    0.00   1   85.00     0    0    0    70   0.0  1   1    4    0   0.000    0.000    0.000  1
  2   1    1  1 0 2     1  16   100   80   80     0.00000   2.25665 8.16830e-004   959  1667  -4.01   3.05 -23.00  -39.66  -20.38    4.50  4.000  0.000 0 1 1 2  3.000  3.000  12.00    0.00     0.00    0.00   1   85.00     0    0    0    70   0.0  1   1    4    0   0.000    0.000    0.000  1
  3   1    1  1 0 2     2  16   100   80   80     0.00000   2.25665 8.16830e-004   882  1533  -4.01   3.05 -23.00  -38.10  -16.71    4.22  4.000  0.000 0 1 1 2  3.000  3.000  12.00    0.00     0.00    0.00   1   85.00     0    0    0    70   0.0  1   1    4    0   0.000    0.000    0.000  1
  4   1    1  1 0 2     3  16   100   80   80     0.00000   2.25665 8.16830e-004   892  1550  -4.01   3.05 -23.00  -36.54  -13.03    3.94  4.000  0.000 0 1 1 2  3.000  3.000  12.00    0.00     0.00    0.00   1   85.00     0    0    0    70   0.0  1   1    4    0   0.000    0.000    0.000  1
  5   1    1  1 0 2     4  16   100   80   80     0.00000   2.25665 8.16830e-004   888  1543  -4.01   3.05 -23.00  -34.98   -9.36    3.66  4.000  0.000 0 1 1 2  3.000  3.000  12.00    0.00     0.00    0.00   1   85.00     0    0    0    70   0.0  1   1    4    0   0.000    0.000    0.000  1
  6   1    1  1 0 2     5  16   100   80   80     0.00000   2.25665 8.16830e-004   961  1671  -4.01   3.05 -23.00  -33.42   -5.69    3.38  4.000  0.000 0 1 1 2  3.000  3.000  12.00    0.00     0.00    0.00   1   85.00     0    0    0    70   0.0  1   1    4    0   0.000    0.000    0.000  1
  7   1    1  1 0 2     6  16   100   80   80     0.00000   2.25665 8.16830e-004   919  1597  -4.01   3.05 -23.00  -31.86   -2.01    3.10  4.000  0.000 0 1 1 2  3.000  3.000  12.00    0.00     0.00    0.00   1   85.00     0    0    0    70   0.0  1   1    4    0   0.000    0.000    0.000  1
  8   1    1  1 0 2     7  16   100   80   80     0.00000   2.25665 8.16830e-004  1005  1747  -4.01   3.05 -23.00  -30.30    1.66    2.82  4.000  0.000 0 1 1 2  3.000  3.000  12.00    0.00     0.00    0.00   1   85.00     0    0    0    70   0.0  1   1    4    0   0.000    0.000    0.000  1
  9   1    1  1 0 2     8  16   100   80   80     0.00000   2.25665 8.16830e-004   992  1724  -4.01   3.05 -23.00  -28.74    5.33    2.54  4.000  0.000 0 1 1 2  3.000  3.000  12.00    0.00     0.00    0.00   1   85.00     0    0    0    70   0.0  1   1    4    0   0.000    0.000    0.000  1
 10   1    1  1 0 2     9  16   100   80   80     0.00000   2.25665 8.16830e-004   996  1732  -4.01   3.05 -23.00  -27.18    9.01    2.26  4.000  0.000 0 1 1 2  3.000  3.000  12.00    0.00     0.00    0.00   1   85.00     0    0    0    70   0.0  1   1    4    0   0.000    0.000    0.000  1
 11   1    1  1 0 2    10  16   100   80   80     0.00000   2.25665 8.16830e-004   984  1710  -4.01   3.05 -23.00  -25.63   12.68    1.98  4.000  0.000 0 1 1 2  3.000  3.000  12.00    0.00     0.00    0.00   1   85.00     0    0    0    70   0.0  1   1    4    0   0.000    0.000    0.000  1
 12   1    1  1 0 2    11  16   100   80   80     0.00000   2.25665 8.16830e-004   954  1659  -4.01   3.05 -23.00  -24.07   16.35    1.70  4.000  0.000 0 1 1 2  3.000  3.000  12.00    0.00     0.00    0.00   1   85.00     0    0    0    70   0.0  1   1    4    0   0.000    0.000    0.000  1
 13   1    1  1 0 2    12  16   100   80   80     0.00000   2.25665 8.16830e-004   949  1649  -4.01   3.05 -23.00  -22.51   20.02    1.42  4.000  0.000 0 1 1 2  3.000  3.000  12.00    0.00     0.00    0.00   1   85.00     0    0    0    70   0.0  1   1    4    0   0.000    0.000    0.000  1
 14   1    1  1 0 2    13  16   100   80   80     0.00000   2.25665 8.16830e-004   940  1635  -4.01   3.05 -23.00  -20.95   23.70    1.14  4.000  0.000 0 1 1 2  3.000  3.000  12.00    0.00     0.00    0.00   1   85.00     0    0    0    70   0.0  1   1    4    0   0.000    0.000    0.000  1
 15   1    1  1 0 2    14  16   100   80   80     0.00000   2.25665 8.16830e-004   947  1647  -4.01   3.05 -23.00  -19.39   27.37    0.86  4.000  0.000 0 1 1 2  3.000  3.000  12.00    0.00     0.00    0.00   1   85.00     0    0    0    70   0.0  1   1    4    0   0.000    0.000    0.000  1
 16   1    1  1 0 2    15  16   100   80   80     0.00000   2.25665 8.16830e-004   970  1687  -4.01   3.05 -23.00  -17.83   31.04    0.58  4.000  0.000 0 1 1 2  3.000  3.000  12.00    0.00     0.00    0.00   1   85.00     0    0    0    70   0.0  1   1    4    0   0.000    0.000    0.000  1
 17   1    1  1 0 2    16  16   100   80   80     0.00000   2.25665 8.16830e-004   988  1717  -4.01   3.05 -23.00  -16.27   34.72    0.30  4.000  0.000 0 1 1 2  3.000  3.000  12.00    0.00     0.00    0.00   1   85.00     0    0    0    70   0.0  1   1    4    0   0.000    0.000    0.000  1
 18   1    1  1 0 2    17  16   100   80   80     0.00000   2.25665 8.16830e-004  1005  1747  -4.01   3.05 -23.00  -14.71   38.39    0.03  4.000  0.000 0 1 1 2  3.000  3.000  12.00    0.00     0.00    0.00   1   85.00     0    0    0    70   0.0  1   1    4    0   0.000    0.000    0.000  1
 19   1    1  1 0 2    18  16   100   80   80     0.00000   2.25665 8.16830e-004   936  1627  -4.01   3.05 -23.00  -13.15   42.06   -0.25  4.000  0.000 0 1 1 2  3.000  3.000  12.00    0.00     0.00    0.00   1   85.00     0    0    0    70   0.0  1   1    4    0   0.000    0.000    0.000  1
 20   1    1  1 0 2    19  16   100   80   80     0.00000   2.25665 8.16830e-004   932  1621  -4.01   3.05 -23.00  -11.59   45.74   -0.53  4.000  0.000 0 1 1 2  3.000  3.000  12.00    0.00     0.00    0.00   1   85.00     0    0    0    70   0.0  1   1    4    0   0.000    0.000    0.000  1
 21   1    1  1 0 2    20  16   100   80   80     0.00000   2.25665 8.16830e-004   934  1624  -4.01   3.05 -23.00  -10.03   49.41   -0.81  4.000  0.000 0 1 1 2  3.000  3.000  12.00    0.00     0.00    0.00   1   85.00     0    0    0    70   0.0  1   1    4    0   0.000    0.000    0.000  1
 22   1    1  1 0 2    21  16   100   80   80     0.00000   2.25665 8.16830e-004   931  1619  -4.01   3.05 -23.00   -8.48   53.08   -1.09  4.000  0.000 0 1 1 2  3.000  3.000  12.00    0.00     0.00    0.00   1   85.00     0    0    0    70   0.0  1   1    4    0   0.000    0.000    0.000  1
 23   1    1  1 0 2    22  16   100   80   80     0.00000   2.25665 8.16830e-004   920  1599  -4.01   3.05 -23.00   -6.92   56.75   -1.37  4.000  0.000 0 1 1 2  3.000  3.000  12.00    0.00     0.00    0.00   1   85.00     0    0    0    70   0.0  1   1    4    0   0.000    0.000    0.000  1
 24   1    1  1 0 2    23  16   100   80   80     0.00000   2.25665 8.16830e-004   911  1583  -4.01   3.05 -23.00   -5.36   60.43   -1.65  4.000  0.000 0 1 1 2  3.000  3.000  12.00    0.00     0.00    0.00   1   85.00     0    0    0    70   0.0  1   1    4    0   0.000    0.000    0.000  1
 25   1    1  1 0 2    24  16   100   80   80     0.00000   2.25665 8.16830e-004   925  1608  -4.01   3.05 -23.00   -3.80   64.10   -1.93  4.000  0.000 0 1 1 2  3.000  3.000  12.00    0.00     0.00    0.00   1   85.00     0    0    0    70   0.0  1   1    4    0   0.000    0.000    0.000  1
 26   1    1  1 0 2    25  16   100   80   80     0.00000   2.25665 8.16830e-004   897  1560  -4.01   3.05 -23.00   -2.24   67.77   -2.21  4.000  0.000 0 1 1 2  3.000  3.000  12.00    0.00     0.00    0.00   1   85.00     0    0    0    70   0.0  1   1    4    0   0.000    0.000    0.000  1
 27   1    1  1 0 2    26  16   100   80   80     0.00000   2.25665 8.16830e-004   894  1554  -4.01   3.05 -23.00   -0.68   71.45   -2.49  4.000  0.000 0 1 1 2  3.000  3.000  12.00    0.00     0.00    0.00   1   85.00     0    0    0    70   0.0  1   1    4    0   0.000    0.000    0.000  1
 28   1    1  1 0 2    27  16   100   80   80     0.00000   2.25665 8.16830e-004   899  1562  -4.01   3.05 -23.00    0.88   75.12   -2.77  4.000  0.000 0 1 1 2  3.000  3.000  12.00    0.00     0.00    0.00   1   85.00     0    0    0    70   0.0  1   1    4    0   0.000    0.000    0.000  1
 29   1    1  1 0 2    28  16   100   80   80     0.00000   2.25665 8.16830e-004   867  1508  -4.01   3.05 -23.00    2.44   78.79   -3.05  4.000  0.000 0 1 1 2  3.000  3.000  12.00    0.00     0.00    0.00   1   85.00     0    0    0    70   0.0  1   1    4    0   0.000    0.000    0.000  1
 30   1    1  1 0 2    29  16   100   80   80     0.00000   2.25665 8.16830e-004   830  1442  -4.01   3.05 -23.00    4.00   82.47   -3.33  4.000  0.000 0 1 1 2  3.000  3.000  12.00    0.00     0.00    0.00   1   85.00     0    0    0    70   0.0  1   1    4    0   0.000    0.000    0.000  1
 31   1    1  1 0 2    30  16   100   80   80     0.00000   2.25665 8.16830e-004   824  1433  -4.01   3.05 -23.00    5.56   86.14   -3.61  4.000  0.000 0 1 1 2  3.000  3.000  12.00    0.00     0.00    0.00   1   85.00     0    0    0    70   0.0  1   1    4    0   0.000    0.000    0.000  1
  1   2    1  1 0 2    31  16   100   80   80     0.00000   2.25665 8.16830e-004   881  1531  -4.01   3.05 -23.00  -41.22  -24.05    4.78  4.000  0.000 0 1 1 2  3.000  3.000  35.00    0.00     0.00    0.00   1   85.00     0    0    0    70   0.0  1   1    8    0   0.000    0.000    0.000  1
  2   2    1  1 0 2    32  16   100   80   80     0.00000   2.25665 8.16830e-004   645  1122  -4.01   3.05 -23.00  -39.66  -20.38    4.50  4.000  0.000 0 1 1 2  3.000  3.000  35.00    0.00     0.00    0.00   1   85.00     0    0    0    70   0.0  1   1    8    0   0.000    0.000    0.000  1
  3   2    1  1 0 2    33  16   100   80   80     0.00000   2.25665 8.16830e-004   674  1171  -4.01   3.05 -23.00  -38.10  -16.71    4.22  4.000  0.000 0 1 1 2  3.000  3.000  35.00    0.00     0.00    0.00   1   85.00     0    0    0    70   0.0  1   1    8    0   0.000    0.000    0.000  1
  4   2    1  1 0 2    34  16   100   80   80     0.00000   2.25665 8.16830e-004   824  1433  -4.01   3.05 -23.00  -36.54  -13.03    3.94  4.000  0.000 0 1 1 2  3.000  3.000  35.00    0.00     0.00    0.00   1   85.00     0    0    0    70   0.0  1   1    8    0   0.000    0.000    0.000  1
  5   2    1  1 0 2    35  16   100   80   80     0.00000   2.25665 8.16830e-004   711  1235  -4.01   3.05 -23.00  -34.98   -9.36    3.66  4.000  0.000 0 1 1 2  3.000  3.000  35.00    0.00     0.00    0.00   1   85.00     0    0    0    70   0.0  1   1    8    0   0.000    0.000    0.000  1
  6   2    1  1 0 2    36  16   100   80   80     0.00000   2.25665 8.16830e-004   896  1557  -4.01   3.05 -23.00  -33.42   -5.69    3.38  4.000  0.000 0 1 1 2  3.000  3.000  35.00    0.00     0.00    0.00   1   85.00     0    0    0    70   0.0  1   1    8    0   0.000    0.000    0.000  1
  7   2    1  1 0 2    37  16   100   80   80     0.00000   2.25665 8.16830e-004   799  1389  -4.01   3.05 -23.00  -31.86   -2.01    3.10  4.000  0.000 0 1 1 2  3.000  3.000  35.00    0.00     0.00    0.00   1   85.00     0    0    0    70   0.0  1   1    8    0   0.000    0.000    0.000  1
  8   2    1  1 0 2    38  16   100   80   80     0.00000   2.25665 8.16830e-004   888  1543  -4.01   3.05 -23.00  -30.30    1.66    2.82  4.000  0.000 0 1 1 2  3.000  3.000  35.00    0.00     0.00    0.00   1   85.00     0    0    0    70   0.0  1   1    8    0   0.000    0.000    0.000  1
  9   2    1  1 0 2    39  16   100   80   80     0.00000   2.25665 8.16830e-004   902  1568  -4.01   3.05 -23.00  -28.74    5.33    2.54  4.000  0.000 0 1 1 2  3.000  3.000  35.00    0.00     0.00    0.00   1   85.00     0    0    0    70   0.0  1   1    8    0   0.000    0.000    0.000  1
 10   2    1  1 0 2    40  16   100   80   80     0.00000   2.25665 8.16830e-004   889  1545  -4.01   3.05 -23.00  -27.18    9.01    2.26  4.000  0.000 0 1 1 2  3.000  3.000  35.00    0.00     0.00    0.00   1   85.00     0    0    0    70   0.0  1   1    8    0   0.000    0.000    0.000  1
 11   2    1  1 0 2    41  16   100   80   80     0.00000   2.25665 8.16830e-004   887  1541  -4.01   3.05 -23.00  -25.63   12.68    1.98  4.000  0.000 0 1 1 2  3.000  3.000  35.00    0.00     0.00    0.00   1   85.00     0    0    0    70   0.0  1   1    8    0   0.000    0.000    0.000  1
 12   2    1  1 0 2    42  16   100   80   80     0.00000   2.25665 8.16830e-004   872  1516  -4.01   3.05 -23.00  -24.07   16.35    1.70  4.000  0.000 0 1 1 2  3.000  3.000  35.00    0.00     0.00    0.00   1   85.00     0    0    0    70   0.0  1   1    8    0   0.000    0.000    0.000  1
 13   2    1  1 0 2    43  16   100   80   80     0.00000   2.25665 8.16830e-004   803  1395  -4.01   3.05 -23.00  -22.51   20.02    1.42  4.000  0.000 0 1 1 2  3.000  3.000  35.00    0.00     0.00    0.00   1   85.00     0    0    0    70   0.0  1   1    8    0   0.000    0.000    0.000  1
 14   2    1  1 0 2    44  16   100   80   80     0.00000   2.25665 8.16830e-004   728  1265  -4.01   3.05 -23.00  -20.95   23.70    1.14  4.000  0.000 0 1 1 2  3.000  3.000  35.00    0.00     0.00    0.00   1   85.00     0    0    0    70   0.0  1   1    8    0   0.000    0.000    0.000  1
 15   2    1  1 0 2    45  16   100   80   80     0.00000   2.25665 8.16830e-004   752  1307  -4.01   3.05 -23.00  -19.39   27.37    0.86  4.000  0.000 0 1 1 2  3.000  3.000  35.00    0.00     0.00    0.00   1   85.00     0    0    0    70   0.0  1   1    8    0   0.000    0.000    0.000  1
 16   2    1  1 0 2    46  16   100   80   80     0.00000   2.25665 8.16830e-004   858  1491  -4.01   3.05 -23.00  -17.83   31.04    0.58  4.000  0.000 0 1 1 2  3.000  3.000  35.00    0.00     0.00    0.00   1   85.00     0    0    0    70   0.0  1   1    8    0   0.000    0.000    0.000  1
 17   2    1  1 0 2    47  16   100   80   80     0.00000   2.25665 8.16830e-004   818  1421  -4.01   3.05 -23.00  -16.27   34.72    0.30  4.000  0.000 0 1 1 2  3.000  3.000  35.00    0.00     0.00    0.00   1   85.00     0    0    0    70   0.0  1   1    8    0   0.000    0.000    0.000  1
 18   2    1  1 0 2    48  16   100   80   80     0.00000   2.25665 8.16830e-004   810  1408  -4.01   3.05 -23.00  -14.71   38.39    0.03  4.000  0.000 0 1 1 2  3.000  3.000  35.00    0.00     0.00    0.00   1   85.00     0    0    0    70   0.0  1   1    8    0   0.000    0.000    0.000  1
 19   2    1  1 0 2    49  16   100   80   80     0.00000   2.25665 8.16830e-004   863  1500  -4.01   3.05 -23.00  -13.15   42.06   -0.25  4.000  0.000 0 1 1 2  3.000  3.000  35.00    0.00     0.00    0.00   1   85.00     0    0    0    70   0.0  1   1    8    0   0.000    0.000    0.000  1
 20   2    1  1 0 2    50  16   100   80   80     0.00000   2.25665 8.16830e-004   667  1160  -4.01   3.05 -23.00  -11.59   45.74   -0.53  4.000  0.000 0 1 1 2  3.000  3.000  35.00    0.00     0.00    0.00   1   85.00     0    0    0    70   0.0  1   1    8    0   0.000    0.000    0.000  1
 21   2    1  1 0 2    51  16   100   80   80     0.00000   2.25665 8.16830e-004   629  1094  -4.01   3.05 -23.00  -10.03   49.41   -0.81  4.000  0.000 0 1 1 2  3.000  3.000  35.00    0.00     0.00    0.00   1   85.00     0    0    0    70   0.0  1   1    8    0   0.000    0.000    0.000  1
 22   2    1  1 0 2    52  16   100   80   80     0.00000   2.25665 8.16830e-004   653  1136  -4.01   3.05 -23.00   -8.48   53.08   -1.09  4.000  0.000 0 1 1 2  3.000  3.000  35.00    0.00     0.00    0.00   1   85.00     0    0    0    70   0.0  1   1    8    0   0.000    0.000    0.000  1
 23   2    1  1 0 2    53  16   100   80   80     0.00000   2.25665 8.16830e-004   685  1191  -4.01   3.05 -23.00   -6.92   56.75   -1.37  4.000  0.000 0 1 1 2  3.000  3.000  35.00    0.00     0.00    0.00   1   85.00     0    0    0    70   0.0  1   1    8    0   0.000    0.000    0.000  1
 24   2    1  1 0 2    54  16   100   80   80     0.00000   2.25665 8.16830e-004   683  1187  -4.01   3.05 -23.00   -5.36   60.43   -1.65  4.000  0.000 0 1 1 2  3.000  3.000  35.00    0.00     0.00    0.00   1   85.00     0    0    0    70   0.0  1   1    8    0   0.000    0.000    0.000  1
 25   2    1  1 0 2    55  16   100   80   80     0.00000   2.25665 8.16830e-004   660  1148  -4.01   3.05 -23.00   -3.80   64.10   -1.93  4.000  0.000 0 1 1 2  3.000  3.000  35.00    0.00     0.00    0.00   1   85.00     0    0    0    70   0.0  1   1    8    0   0.000    0.000    0.000  1
 26   2    1  1 0 2    56  16   100   80   80     0.00000   2.25665 8.16830e-004   666  1157  -4.01   3.05 -23.00   -2.24   67.77   -2.21  4.000  0.000 0 1 1 2  3.000  3.000  35.00    0.00     0.00    0.00   1   85.00     0    0    0    70   0.0  1   1    8    0   0.000    0.000    0.000  1
 27   2    1  1 0 2    57  16   100   80   80     0.00000   2.25665 8.16830e-004   706  1227  -4.01   3.05 -23.00   -0.68   71.45   -2.49  4.000  0.000 0 1 1 2  3.000  3.000  35.00    0.00     0.00    0.00   1   85.00     0    0    0    70   0.0  1   1    8    0   0.000    0.000    0.000  1
 28   2    1  1 0 2    58  16   100   80   80     0.00000   2.25665 8.16830e-004   703  1222  -4.01   3.05 -23.00    0.88   75.12   -2.77  4.000  0.000 0 1 1 2  3.000  3.000  35.00    0.00     0.00    0.00   1   85.00     0    0    0    70   0.0  1   1    8    0   0.000    0.000    0.000  1
 29   2    1  1 0 2    59  16   100   80   80     0.00000   2.25665 8.16830e-004   720  1251  -4.01   3.05 -23.00    2.44   78.79   -3.05  4.000  0.000 0 1 1 2  3.000  3.000  35.00    0.00     0.00    0.00   1   85.00     0    0    0    70   0.0  1   1    8    0   0.000    0.000    0.000  1
 30   2    1  1 0 2    60  16   100   80   80     0.00000   2.25665 8.16830e-004   699  1214  -4.01   3.05 -23.00    4.00   82.47   -3.33  4.000  0.000 0 1 1 2  3.000  3.000  35.00    0.00     0.00    0.00   1   85.00     0    0    0    70   0.0  1   1    8    0   0.000    0.000    0.000  1
 31   2    1  1 0 2    61  16   100   80   80     0.00000   2.25665 8.16830e-004   661  1150  -4.01   3.05 -23.00    5.56   86.14   -3.61  4.000  0.000 0 1 1 2  3.000  3.000  35.00    0.00     0.00    0.00   1   85.00     0    0    0    70   0.0  1   1    8    0   0.000    0.000    0.000  1
  1   1    2  1 0 2    62  16   100   80   80     0.00000   2.25665 8.16830e-004  1041  1810  -4.01   3.05 -23.00  -41.22  -24.05    4.78  4.000  0.000 0 1 2 2  3.000  3.000  12.00    2.80     0.00    0.00   1   85.00     0    0    0    70   0.0  1   1    4    0   0.000    0.000    0.000  1
  2   1    2  1 0 2    63  16   100   80   80     0.00000   2.25665 8.16830e-004   960  1669  -4.01   3.05 -23.00  -39.66  -20.38    4.50  4.000  0.000 0 1 2 2  3.000  3.000  12.00    2.80     0.00    0.00   1   85.00     0    0    0    70   0.0  1   1    4    0   0.000    0.000    0.000  1
  3   1    2  1 0 2    64  16   100   80   80     0.00000   2.25665 8.16830e-004   893  1552  -4.01   3.05 -23.00  -38.10  -16.71    4.22  4.000  0.000 0 1 2 2  3.000  3.000  12.00    2.80     0.00    0.00   1   85.00     0    0    0    70   0.0  1   1    4    0   0.000    0.000    0.000  1
  4   1    2  1 0 2    65  16   100   80   80     0.00000   2.25665 8.16830e-004   837  1455  -4.01   3.05 -23.00  -36.54  -13.03    3.94  4.000  0.000 0 1 2 2  3.000  3.000  12.00    2.80     0.00    0.00   1   85.00     0    0    0    70   0.0  1   1    4    0   0.000    0.000    0.000  1
  5   1    2  1 0 2    66  16   100   80   80     0.00000   2.25665 8.16830e-004   885  1539  -4.01   3.05 -23.00  -34.98   -9.36    3.66  4.000  0.000 0 1 2 2  3.000  3.000  12.00    2.80     0.00    0.00   1   85.00     0    0    0    70   0.0  1   1    4    0   0.000    0.000    0.000  1
  6   1    2  1 0 2    67  16   100   80   80     0.00000   2.25665 8.16830e-004   953  1657  -4.01   3.05 -23.00  -33.42   -5.69    3.38  4.000  0.000 0 1 2 2  3.000  3.000  12.00    2.80     0.00    0.00   1   85.00     0    0    0    70   0.0  1   1    4    0   0.000    0.000    0.000  1
  7   1    2  1 0 2    68  16   100   80   80     0.00000   2.25665 8.16830e-004   907  1577  -4.01   3.05 -23.00  -31.86   -2.01    3.10  4.000  0.000 0 1 2 2  3.000  3.000  12.00    2.80     0.00    0.00   1   85.00     0    0    0    70   0.0  1   1    4    0   0.000    0.000    0.000  1
  8   1    2  1 0 2    69  16   100   80   80     0.00000   2.25665 8.16830e-004  1003  1743  -4.01   3.05 -23.00  -30.30    1.66    2.82  4.000  0.000 0 1 2 2  3.000  3.000  12.00    2.80     0.00    0.00   1   85.00     0    0    0    70   0.0  1   1    4    0   0.000    0.000    0.000  1
  9   1    2  1 0 2    70  16   100   80   80     0.00000   2.25665 8.16830e-004  1017  1767  -4.01   3.05 -23.00  -28.74    5.33    2.54  4.000  0.000 0 1 2 2  3.000  3.000  12.00    2.80     0.00    0.00   1   85.00     0    0    0    70   0.0  1   1    4    0   0.000    0.000    0.000  1
 10   1    2  1 0 2    71  16   100   80   80     0.00000   2.25665 8.16830e-004  1052  1829  -4.01   3.05 -23.00  -27.18    9.01    2.26  4.000  0.000 0 1 2 2  3.000  3.000  12.00    2.80     0.00    0.00   1   85.00     0    0    0    70   0.0  1   1    4    0   0.000    0.000    0.000  1
 11   1    2  1 0 2    72  16   100   80   80     0.00000   2.25665 8.16830e-004   989  1720  -4.01   3.05 -23.00  -25.63   12.68    1.98  4.000  0.000 0 1 2 2  3.000  3.000  12.00    2.80     0.00    0.00   1   85.00     0    0    0    70   0.0  1   1    4    0   0.000    0.000    0.000  1
 12   1    2  1 0 2    73  16   100   80   80     0.00000   2.25665 8.16830e-004   935  1626  -4.01   3.05 -23.00  -24.07   16.35    1.70  4.000  0.000 0 1 2 2  3.000  3.000  12.00    2.80     0.00    0.00   1   85.00     0    0    0    70   0.0  1   1    4    0   0.000    0.000    0.000  1
 13   1    2  1 0 2    74  16   100   80   80     0.00000   2.25665 8.16830e-004   945  1643  -4.01   3.05 -23.00  -22.51   20.02    1.42  4.000  0.000 0 1 2 2  3.000  3.000  12.00    2.80     0.00    0.00   1   85.00     0    0    0    70   0.0  1   1    4    0   0.000    0.000    0.000  1
 14   1    2  1 0 2    75  16   100   80   80     0.00000   2.25665 8.16830e-004   942  1638  -4.01   3.05 -23.00  -20.95   23.70    1.14  4.000  0.000 0 1 2 2  3.000  3.000  12.00    2.80     0.00    0.00   1   85.00     0    0    0    70   0.0  1   1    4    0   0.000    0.000    0.000  1
 15   1    2  1 0 2    76  16   100   80   80     0.00000   2.25665 8.16830e-004   948  1649  -4.01   3.05 -23.00  -19.39   27.37    0.86  4.000  0.000 0 1 2 2  3.000  3.000  12.00    2.80     0.00    0.00   1   85.00     0    0    0    70   0.0  1   1    4    0   0.000    0.000    0.000  1
 16   1    2  1 0 2    77  16   100   80   80     0.00000   2.25665 8.16830e-004   966  1680  -4.01   3.05 -23.00  -17.83   31.04    0.58  4.000  0.000 0 1 2 2  3.000  3.000  12.00    2.80     0.00    0.00   1   85.00     0    0    0    70   0.0  1   1    4    0   0.000    0.000    0.000  1
 17   1    2  1 0 2    78  16   100   80   80     0.00000   2.25665 8.16830e-004   983  1709  -4.01   3.05 -23.00  -16.27   34.72    0.30  4.000  0.000 0 1 2 2  3.000  3.000  12.00    2.80     0.00    0.00   1   85.00     0    0    0    70   0.0  1   1    4    0   0.000    0.000    0.000  1
 18   1    2  1 0 2    79  16   100   80   80     0.00000   2.25665 8.16830e-004  1005  1747  -4.01   3.05 -23.00  -14.71   38.39    0.03  4.000  0.000 0 1 2 2  3.000  3.000  12.00    2.80     0.00    0.00   1   85.00     0    0    0    70   0.0  1   1    4    0   0.000    0.000    0.000  1
 19   1    2  1 0 2    80  16   100   80   80     0.00000   2.25665 8.16830e-004   931  1618  -4.01   3.05 -23.00  -13.15   42.06   -0.25  4.000  0.000 0 1 2 2  3.000  3.000  12.00    2.80     0.00    0.00   1   85.00     0    0    0    70   0.0  1   1    4    0   0.000    0.000    0.000  1
 20   1    2  1 0 2    81  16   100   80   80     0.00000   2.25665 8.16830e-004   935  1626  -4.01   3.05 -23.00  -11.59   45.74   -0.53  4.000  0.000 0 1 2 2  3.000  3.000  12.00    2.80     0.00    0.00   1   85.00     0    0    0    70   0.0  1   1    4    0   0.000    0.000    0.000  1
 21   1    2  1 0 2    82  16   100   80   80     0.00000   2.25665 8.16830e-004   942  1637  -4.01   3.05 -23.00  -10.03   49.41   -0.81  4.000  0.000 0 1 2 2  3.000  3.000  12.00    2.80     0.00    0.00   1   85.00     0    0    0    70   0.0  1   1    4    0   0.000    0.000    0.000  1
 22   1    2  1 0 2    83  16   100   80   80     0.00000   2.25665 8.16830e-004   932  1621  -4.01   3.05 -23.00   -8.48   53.08   -1.09  4.000  0.000 0 1 2 2  3.000  3.000  12.00    2.80     0.00    0.00   1   85.00     0    0    0    70   0.0  1   1    4    0   0.000    0.000    0.000  1
